# #Time 	 Real 	 Imaginary 	 Amplitude 	 Phase 
# 
0.000000000000000000e+00	-1.785508617985284597e-08	1.276769338739781845e-07	1.289193683895099299e-07	-1.709741054038714569e+00
2.399999999999999911e-01	-1.784618472366033752e-08	1.280251938928559162e-07	1.292630518767615907e-07	-1.709299713544492727e+00
4.799999999999999822e-01	-1.783596507222466022e-08	1.283725220190333008e-07	1.296056559706589629e-07	-1.708851629305866870e+00
7.199999999999999734e-01	-1.782336582988906069e-08	1.287189024626504988e-07	1.299470208227006142e-07	-1.708388769373614613e+00
9.599999999999999645e-01	-1.780912168181196090e-08	1.290643192478775375e-07	1.302872339026185634e-07	-1.707916839398788467e+00
1.199999999999999956e+00	-1.779537709538959070e-08	1.294087561575067353e-07	1.306265731625849387e-07	-1.707452178344863958e+00
1.439999999999999947e+00	-1.778465138414513289e-08	1.297521966982226049e-07	1.309653632563580701e-07	-1.707013795746096019e+00
1.679999999999999938e+00	-1.777866921655993453e-08	1.300946240618711648e-07	1.313038167339831820e-07	-1.706614513923966792e+00
1.919999999999999929e+00	-1.777756468809923406e-08	1.304360210940385119e-07	1.316419287502428484e-07	-1.706255055044292757e+00
2.160000000000000142e+00	-1.777976070357808145e-08	1.307763702674591744e-07	1.319794639745444720e-07	-1.705923287478814832e+00
2.399999999999999911e+00	-1.778252977172174896e-08	1.311156536401797520e-07	1.323160345331349209e-07	-1.705598586750443291e+00
2.639999999999999680e+00	-1.778297998736224996e-08	1.314538527939116196e-07	1.326512336602804061e-07	-1.705259306596561553e+00
2.879999999999999893e+00	-1.777906997678005990e-08	1.317909487540500530e-07	1.329847716948519234e-07	-1.704890353215087861e+00
3.120000000000000107e+00	-1.777027483643963654e-08	1.321269219381918842e-07	1.333165637444336777e-07	-1.704488052941584453e+00
3.359999999999999876e+00	-1.775767733111597763e-08	1.324617522496663085e-07	1.336467392540798526e-07	-1.704060688176894489e+00
3.599999999999999645e+00	-1.774348215547771522e-08	1.327954192399463851e-07	1.339755743787459099e-07	-1.703624759941762212e+00
3.839999999999999858e+00	-1.773015936487983865e-08	1.331279023700797735e-07	1.343033765046937512e-07	-1.703198568882184460e+00
4.080000000000000071e+00	-1.771954309886710414e-08	1.334591812731379224e-07	1.346303653479737698e-07	-1.702795558917668872e+00
4.320000000000000284e+00	-1.771220343064453570e-08	1.337892358781195460e-07	1.349565922332793962e-07	-1.702419761288609390e+00
4.559999999999999609e+00	-1.770728869071932673e-08	1.341180463093812639e-07	1.352819219948541838e-07	-1.702064750595074338e+00
4.799999999999999822e+00	-1.770285983256902372e-08	1.344455925680714479e-07	1.356060787989662844e-07	-1.701716212664971417e+00
5.040000000000000036e+00	-1.769657841846912744e-08	1.347718540119903177e-07	1.359287369232505544e-07	-1.701357054941848856e+00
5.279999999999999361e+00	-1.768651490392033057e-08	1.350968087843943317e-07	1.362496258826929900e-07	-1.700973319824374164e+00
5.519999999999999574e+00	-1.767182820821701287e-08	1.354204333195932999e-07	1.365686174517672696e-07	-1.700559081050307064e+00
5.759999999999999787e+00	-1.765311788839962456e-08	1.357427021800505950e-07	1.368857690423794487e-07	-1.700118901973159735e+00
6.000000000000000000e+00	-1.763234626149093236e-08	1.360635881290765262e-07	1.372013106688273779e-07	-1.699667154111631273e+00
6.240000000000000213e+00	-1.761234875890529774e-08	1.363830626707238046e-07	1.375155795255646276e-07	-1.699224376919880930e+00
6.479999999999999538e+00	-1.759607264821143206e-08	1.367010967567631953e-07	1.378289215917438220e-07	-1.698811732178394207e+00
6.719999999999999751e+00	-1.758595014732031459e-08	1.370176614807115570e-07	1.381416128479282768e-07	-1.698446496566355934e+00
6.959999999999999964e+00	-1.758258110783364507e-08	1.373327292781873508e-07	1.384536951092654856e-07	-1.698132666357840659e+00
7.199999999999999289e+00	-1.758547591986239931e-08	1.376462735237946113e-07	1.387650733373327628e-07	-1.697866414966282100e+00
7.439999999999999503e+00	-1.759265904243413507e-08	1.379582687728082339e-07	1.390754671930809415e-07	-1.697633351207460617e+00
7.679999999999999716e+00	-1.760128035554082875e-08	1.382686901124671481e-07	1.393844888628997232e-07	-1.697412986824397452e+00
7.919999999999999929e+00	-1.760827997397847734e-08	1.385775123767649286e-07	1.396917265272873963e-07	-1.697183523963314622e+00
8.160000000000000142e+00	-1.761104012902026782e-08	1.388847093066640094e-07	1.399968257269518458e-07	-1.696926487155764995e+00
8.400000000000000355e+00	-1.760787663761864723e-08	1.391902528708170288e-07	1.402995502983797314e-07	-1.696630160342638138e+00
8.640000000000000568e+00	-1.759827904506130518e-08	1.394941128763027010e-07	1.405998113529834091e-07	-1.696291207166849224e+00
8.879999999999999005e+00	-1.758287320000749951e-08	1.397962569679644686e-07	1.408976610601492488e-07	-1.695914318154130518e+00
9.119999999999999218e+00	-1.756314425910581958e-08	1.400966509968380972e-07	1.411932564140229164e-07	-1.695510181056250509e+00
9.359999999999999432e+00	-1.754101418573723499e-08	1.403952595472350264e-07	1.414868053282698246e-07	-1.695092457591910184e+00
9.599999999999999645e+00	-1.751839667232204122e-08	1.406920465692868286e-07	1.417785110297861665e-07	-1.694674639765140434e+00
9.839999999999999858e+00	-1.749684158052511467e-08	1.409869758636731799e-07	1.420685286348738073e-07	-1.694267569418437480e+00
1.008000000000000007e+01	-1.747733566951818042e-08	1.412800113421102203e-07	1.423569417588471625e-07	-1.693878076584137027e+00
1.032000000000000028e+01	-1.746026968165641341e-08	1.415711170364495401e-07	1.426437597524135066e-07	-1.693508790982740653e+00
1.055999999999999872e+01	-1.744553846626856688e-08	1.418602568426596665e-07	1.429289308847002706e-07	-1.693158879185563404e+00
1.079999999999999893e+01	-1.743272113487133738e-08	1.421473941152690167e-07	1.432123647592197404e-07	-1.692825327426870752e+00
1.103999999999999915e+01	-1.742128531581651809e-08	1.424324912149366970e-07	1.434939571401810185e-07	-1.692504375832474928e+00
1.127999999999999936e+01	-1.741076534418472840e-08	1.427155091238773886e-07	1.437736112586652465e-07	-1.692192755822751637e+00
1.151999999999999957e+01	-1.740087489937055155e-08	1.429964072419742176e-07	1.440512510580039241e-07	-1.691888461408828981e+00
1.175999999999999979e+01	-1.739153308917738349e-08	1.432751433765316422e-07	1.443268240236639195e-07	-1.691590916375011577e+00
1.200000000000000000e+01	-1.738280820330793426e-08	1.435516738967049103e-07	1.446002942582721699e-07	-1.691300574458470152e+00
1.224000000000000021e+01	-1.737480792800183230e-08	1.438259540392484351e-07	1.448716294028439523e-07	-1.691018157212248685e+00
1.248000000000000043e+01	-1.736755870604090699e-08	1.440979381909390515e-07	1.451407864326477605e-07	-1.690743826186666743e+00
1.271999999999999886e+01	-1.736091542047797300e-08	1.443675801708269557e-07	1.454077012699710540e-07	-1.690476571184864607e+00
1.295999999999999908e+01	-1.735452836442878929e-08	1.446348333208062651e-07	1.456722851625839348e-07	-1.690213995564061378e+00
1.319999999999999929e+01	-1.734787381273107100e-08	1.448996505092411393e-07	1.459344285750373064e-07	-1.689952536342663514e+00
1.343999999999999950e+01	-1.734030616096565470e-08	1.451619840172529044e-07	1.461940074749345144e-07	-1.689687828217049992e+00
1.367999999999999972e+01	-1.733131744422105577e-08	1.454217848263197102e-07	1.464509135049173666e-07	-1.689416470026532391e+00
1.391999999999999993e+01	-1.732038758961937306e-08	1.456790030599016155e-07	1.467050365828708076e-07	-1.689135001768638622e+00
1.416000000000000014e+01	-1.730725789890131742e-08	1.459335871819076831e-07	1.469562963733045698e-07	-1.688841753060141615e+00
1.439999999999999858e+01	-1.729192703500441755e-08	1.461854839335581703e-07	1.472046414128050224e-07	-1.688536800572021601e+00
1.463999999999999879e+01	-1.727465086895705351e-08	1.464346382835283553e-07	1.474500486669032935e-07	-1.688221952414346472e+00
1.487999999999999901e+01	-1.725590259770451211e-08	1.466809934193359320e-07	1.476925184460767955e-07	-1.687900466033741331e+00
1.511999999999999922e+01	-1.723637770484142782e-08	1.469244909075316700e-07	1.479320747668378873e-07	-1.687577070264726364e+00
1.535999999999999943e+01	-1.721661952670886529e-08	1.471650706591110088e-07	1.481687214294183893e-07	-1.687255444553563466e+00
1.559999999999999964e+01	-1.719734485434095781e-08	1.474026712661822320e-07	1.484024803244383434e-07	-1.686940406939977599e+00
1.583999999999999986e+01	-1.717909266784425294e-08	1.476372299185425894e-07	1.486333505069134357e-07	-1.686635558723244444e+00
1.607999999999999829e+01	-1.716222448569393332e-08	1.478686824745206122e-07	1.488613086266809301e-07	-1.686343296756693588e+00
1.632000000000000028e+01	-1.714688443510047044e-08	1.480969633816489361e-07	1.490863045644909530e-07	-1.686064557042214362e+00
1.655999999999999872e+01	-1.713299141034056750e-08	1.483220056447914048e-07	1.493082608336200940e-07	-1.685798773699605180e+00
1.680000000000000071e+01	-1.712026695014301490e-08	1.485437406971229318e-07	1.495270759452556491e-07	-1.685544075271723230e+00
1.703999999999999915e+01	-1.710829622678143994e-08	1.487620983327652350e-07	1.497426315387525841e-07	-1.685297698553113399e+00
1.728000000000000114e+01	-1.709661007964292692e-08	1.489770066160531173e-07	1.499548017787189339e-07	-1.685056537990370806e+00
1.751999999999999957e+01	-1.708476778675588802e-08	1.491883918910779602e-07	1.501634628176016239e-07	-1.684817695066551879e+00
1.775999999999999801e+01	-1.707241798977455855e-08	1.493961787249732036e-07	1.503684996056079345e-07	-1.684578878816182623e+00
1.800000000000000000e+01	-1.705932104654446427e-08	1.496002899358183376e-07	1.505698083396867041e-07	-1.684338548629064958e+00
1.823999999999999844e+01	-1.704532969785541413e-08	1.498006466137314520e-07	1.507672941668737463e-07	-1.684095781432069172e+00
1.848000000000000043e+01	-1.703034117795223253e-08	1.499971680787254825e-07	1.509608656317089244e-07	-1.683849952226340152e+00
1.871999999999999886e+01	-1.701424671882232634e-08	1.501897717455192117e-07	1.511504288064712039e-07	-1.683600400139176889e+00
1.896000000000000085e+01	-1.699690826469527185e-08	1.503783728520897847e-07	1.513358844167522559e-07	-1.683346275747394261e+00
1.919999999999999929e+01	-1.697818204097245936e-08	1.505628840011394172e-07	1.515171300683753197e-07	-1.683086696869259491e+00
1.943999999999999773e+01	-1.695798707169530507e-08	1.507432147257254916e-07	1.516940674890417908e-07	-1.682821197632904164e+00
1.967999999999999972e+01	-1.693639083353177361e-08	1.509192710692989484e-07	1.518666115858079973e-07	-1.682550286658670124e+00
1.991999999999999815e+01	-1.691366852752784650e-08	1.510909554205231469e-07	1.520346966746262004e-07	-1.682275829176954174e+00
2.016000000000000014e+01	-1.689029700363897902e-08	1.512581667049202047e-07	1.521982757057535318e-07	-1.682001000224680576e+00
2.039999999999999858e+01	-1.686686951667396385e-08	1.514208009181280809e-07	1.523573110749198083e-07	-1.681729722068073363e+00
2.064000000000000057e+01	-1.684395284969545940e-08	1.515787518574545299e-07	1.525117594228934895e-07	-1.681465729828011346e+00
2.087999999999999901e+01	-1.682193485262683770e-08	1.517319119040217671e-07	1.526615556786836877e-07	-1.681211580367673264e+00
2.111999999999999744e+01	-1.680091649015359028e-08	1.518801725036158227e-07	1.528066019340696407e-07	-1.680967956345860159e+00
2.135999999999999943e+01	-1.678068590610343220e-08	1.520234241957267489e-07	1.529467649990452558e-07	-1.680733506823550272e+00
2.159999999999999787e+01	-1.676078113479616810e-08	1.521615559719330210e-07	1.530818829909282437e-07	-1.680505263922858372e+00
2.183999999999999986e+01	-1.674061854614047203e-08	1.522944542633872304e-07	1.532117786225665141e-07	-1.680279483163854781e+00
2.207999999999999829e+01	-1.671964464352681892e-08	1.524220017638006744e-07	1.533362746994000597e-07	-1.680052630461698060e+00
2.232000000000000028e+01	-1.669746642216392104e-08	1.525440763886557776e-07	1.534552072306031083e-07	-1.679822225203147168e+00
2.255999999999999872e+01	-1.667392682052379768e-08	1.526605507239151749e-07	1.535684328986437975e-07	-1.679587323974971014e+00
2.280000000000000071e+01	-1.664911183489775574e-08	1.527712919531093271e-07	1.536758294915407310e-07	-1.679348560468130636e+00
2.303999999999999915e+01	-1.662329663597144574e-08	1.528761621928487860e-07	1.537772901239377096e-07	-1.679107791460773491e+00
2.327999999999999758e+01	-1.659685256214549439e-08	1.529750190768759371e-07	1.538727135542236186e-07	-1.678867492039608056e+00
2.351999999999999957e+01	-1.657014248778252208e-08	1.530677163671325939e-07	1.539619934136810317e-07	-1.678630078492179933e+00
2.375999999999999801e+01	-1.654342921601160522e-08	1.531541044291802682e-07	1.540450088569228542e-07	-1.678397317847269754e+00
2.400000000000000000e+01	-1.651681400971586350e-08	1.532340304906427863e-07	1.541216183584859419e-07	-1.678169933667218228e+00
2.423999999999999844e+01	-1.649028774088299628e-08	1.533073383262736166e-07	1.541916650615838060e-07	-1.677947939082547579e+00
2.448000000000000043e+01	-1.646344837178590882e-08	1.533738691017795405e-07	1.542549475885304232e-07	-1.677728816872179785e+00
2.471999999999999886e+01	-1.643598891754809788e-08	1.534334593606065878e-07	1.543112704343421482e-07	-1.677510669432005885e+00
2.496000000000000085e+01	-1.640748112312684375e-08	1.534859415453844504e-07	1.543604213808673645e-07	-1.677290822895585176e+00
2.519999999999999929e+01	-1.637751355476236575e-08	1.535311432820402292e-07	1.544021855665482219e-07	-1.677066717004161323e+00
2.543999999999999773e+01	-1.634575694105411517e-08	1.535688868528178120e-07	1.544363518708907387e-07	-1.676836324736660666e+00
2.567999999999999972e+01	-1.631201814917364566e-08	1.535989887181621061e-07	1.544627180627774044e-07	-1.676598498380921454e+00
2.591999999999999815e+01	-1.627627969577043804e-08	1.536212591043546273e-07	1.544810944081579289e-07	-1.676353222593562897e+00
2.616000000000000014e+01	-1.623872009551822540e-08	1.536355018719644388e-07	1.544913054698903609e-07	-1.676101744509715052e+00
2.639999999999999858e+01	-1.619970698724605489e-08	1.536415146227701260e-07	1.544931892416345743e-07	-1.675846529366081139e+00
2.664000000000000057e+01	-1.615975578237317689e-08	1.536390890530351370e-07	1.544865929198789995e-07	-1.675590995035561637e+00
2.687999999999999901e+01	-1.611945489379325825e-08	1.536280113546954879e-07	1.544713653039665689e-07	-1.675339032216171642e+00
2.711999999999999744e+01	-1.607937078141527028e-08	1.536080624599037862e-07	1.544473470714597175e-07	-1.675094395095337863e+00
2.735999999999999943e+01	-1.603995404340479909e-08	1.535790178871459234e-07	1.544143609282984573e-07	-1.674860098625906346e+00
2.759999999999999787e+01	-1.600146569317315602e-08	1.535406470441991336e-07	1.543722034534751780e-07	-1.674637945117931181e+00
2.783999999999999986e+01	-1.596393331294302090e-08	1.534927120857074499e-07	1.543206396767651205e-07	-1.674428242111372311e+00
2.807999999999999829e+01	-1.592713828999025799e-08	1.534349664492441791e-07	1.542594005673208837e-07	-1.674229719148296436e+00
2.832000000000000028e+01	-1.589063313886466120e-08	1.533671533584531187e-07	1.541881835642059258e-07	-1.674039637054292262e+00
2.855999999999999872e+01	-1.585379028355358002e-08	1.532890046593446654e-07	1.541066566239352564e-07	-1.673854098877487262e+00
2.879999999999999716e+01	-1.581588313605844231e-08	1.532002401533651808e-07	1.540144660167421504e-07	-1.673668568682180835e+00
2.903999999999999915e+01	-1.577616712249087255e-08	1.531005677711271814e-07	1.539112448813219983e-07	-1.673478390233912538e+00
2.927999999999999758e+01	-1.573408296901623339e-08	1.529896839662845556e-07	1.537966344462046811e-07	-1.673280097802413380e+00
2.951999999999999957e+01	-1.568924868714763551e-08	1.528672756133398194e-07	1.536702849538971883e-07	-1.673071364402256567e+00
2.975999999999999801e+01	-1.564155233920610111e-08	1.527330223018232722e-07	1.535318672492110644e-07	-1.672851603693086053e+00
3.000000000000000000e+01	-1.559114634356117974e-08	1.525865998786408449e-07	1.533810754520608449e-07	-1.672621937337860576e+00
3.023999999999999844e+01	-1.553840826750930774e-08	1.524276844330185541e-07	1.532176266396908052e-07	-1.672384946375869319e+00
3.048000000000000043e+01	-1.548386003430359021e-08	1.522559562787734549e-07	1.530412563458810626e-07	-1.672144152707679021e+00
3.071999999999999886e+01	-1.542805347709370100e-08	1.520711029660510142e-07	1.528517098085701880e-07	-1.671903280222205357e+00
3.095999999999999730e+01	-1.537143742575147210e-08	1.518728201270339333e-07	1.526487293817809655e-07	-1.671665392348857582e+00
3.119999999999999929e+01	-1.531423057598520451e-08	1.516608092344050317e-07	1.524320396628249407e-07	-1.671432062304188948e+00
3.143999999999999773e+01	-1.525633171521814725e-08	1.514347711957834293e-07	1.522013324006201018e-07	-1.671202781828023953e+00
3.167999999999999972e+01	-1.519729938310984193e-08	1.511943953380531792e-07	1.519562538699193859e-07	-1.670974819763600516e+00
3.191999999999999815e+01	-1.513642197156204293e-08	1.509393439200913382e-07	1.516963968363415033e-07	-1.670743672275517344e+00
3.215999999999999659e+01	-1.507287752583982634e-08	1.506692333989508594e-07	1.514212981384603587e-07	-1.670504106123080756e+00
3.239999999999999858e+01	-1.500595452800596573e-08	1.503836147976330407e-07	1.511304412449704142e-07	-1.670251613122373024e+00
3.264000000000000057e+01	-1.493528195534044755e-08	1.500819568505890358e-07	1.508232621951520740e-07	-1.669983940257404154e+00
3.287999999999999545e+01	-1.486100652146330893e-08	1.497636363963004249e-07	1.504991571453948633e-07	-1.669702286417627191e+00
3.311999999999999744e+01	-1.478386319894601934e-08	1.494279405430514047e-07	1.501574907422964927e-07	-1.669411804115062736e+00
3.335999999999999943e+01	-1.470510814352854310e-08	1.490740840174222392e-07	1.497976058925720579e-07	-1.669121190512568687e+00
3.360000000000000142e+01	-1.462631440782255015e-08	1.487012427708602871e-07	1.494188364121297933e-07	-1.668841355386480485e+00
3.383999999999999631e+01	-1.454906087292477019e-08	1.483086018055290111e-07	1.490205238945127024e-07	-1.668583352853684421e+00
3.407999999999999829e+01	-1.447456754818212257e-08	1.478954115565398717e-07	1.486020385633561621e-07	-1.668355918813215100e+00
3.432000000000000028e+01	-1.440335955186957340e-08	1.474610436651414858e-07	1.481628029067795257e-07	-1.668163159046461397e+00
3.456000000000000227e+01	-1.433493400170789250e-08	1.470050402090942633e-07	1.477023093242307562e-07	-1.668002213916274012e+00
3.479999999999999716e+01	-1.426771222885427663e-08	1.465271356425531710e-07	1.472201382007793548e-07	-1.667862814364728719e+00
3.503999999999999915e+01	-1.419907681353443832e-08	1.460272513138777716e-07	1.467159565577073515e-07	-1.667727406638005894e+00
3.528000000000000114e+01	-1.412563864320274591e-08	1.455054503362188720e-07	1.461894994335236086e-07	-1.667572854667868754e+00
3.551999999999999602e+01	-1.404372293183166615e-08	1.449618602305985190e-07	1.456405406310400744e-07	-1.667373681230755356e+00
3.575999999999999801e+01	-1.395002518831983646e-08	1.443965685929320236e-07	1.450688533909607984e-07	-1.667106555843708593e+00
3.600000000000000000e+01	-1.384233006682019428e-08	1.438095033871693228e-07	1.444741615865724887e-07	-1.666755330271357138e+00
3.624000000000000199e+01	-1.372013891619657628e-08	1.432003130060233661e-07	1.438560803612513069e-07	-1.666315575631969192e+00
3.647999999999999687e+01	-1.358504412045486932e-08	1.425682629363492966e-07	1.432140461702089241e-07	-1.665797485482233942e+00
3.671999999999999886e+01	-1.344072787657142139e-08	1.419121656094709867e-07	1.425472409898625905e-07	-1.665226241851674560e+00
3.696000000000000085e+01	-1.329254020829674991e-08	1.412303564663866862e-07	1.418545212984480139e-07	-1.664639443984163192e+00
3.719999999999999574e+01	-1.314669957868812535e-08	1.405207235123612226e-07	1.411343666377886274e-07	-1.664081801900595625e+00
3.743999999999999773e+01	-1.300923583581927132e-08	1.397807900794149557e-07	1.403848620480763709e-07	-1.663597838836211151e+00
