# # Time 	 Separation 	 Orbital Phase 
# 
2.399999999999999911e-01	8.999995211067151502e+00	5.786413006644989995e-05
4.799999999999999822e-01	8.999942890703684029e+00	7.809853093384313801e-04
7.199999999999999734e-01	8.999778598366553695e+00	2.522128109784615210e-03
9.599999999999999645e-01	8.999463166253983459e+00	5.082725396438511102e-03
1.199999999999999956e+00	8.999006981109339165e+00	8.232003639273960047e-03
1.439999999999999947e+00	8.998450280304554738e+00	1.181337982503932391e-02
1.679999999999999938e+00	8.997848335053566515e+00	1.572574699965549605e-02
1.919999999999999929e+00	8.997262664595316650e+00	1.989936542625521734e-02
2.160000000000000142e+00	8.996751103429254215e+00	2.428154077528355340e-02
2.399999999999999911e+00	8.996353398815955416e+00	2.882995831628524727e-02
2.640000000000000124e+00	8.996071683541313035e+00	3.351024324926252240e-02
2.879999999999999893e+00	8.995861689782321591e+00	3.829748729002475927e-02
3.120000000000000107e+00	8.995633058778057745e+00	4.317705644519573976e-02
3.359999999999999876e+00	8.995236771926474972e+00	4.814083115914453981e-02
3.600000000000000089e+00	8.994556612128810968e+00	5.319556923887151095e-02
3.839999999999999858e+00	8.993479527903309290e+00	5.832751641055530789e-02
4.080000000000000071e+00	8.992179472248144734e+00	6.353538225942692574e-02
4.320000000000000284e+00	8.990685392657200126e+00	6.879459224015803398e-02
4.559999999999999609e+00	8.989104841065264750e+00	7.410764789574082745e-02
4.799999999999999822e+00	8.987378430632317006e+00	7.945695726338114495e-02
5.040000000000000036e+00	8.985585111381983126e+00	8.483467374986951304e-02
5.280000000000000249e+00	8.983765034630389223e+00	9.022943833934542190e-02
5.519999999999999574e+00	8.981986214842198279e+00	9.563578511019263373e-02
5.759999999999999787e+00	8.980269253016539110e+00	1.010506502712723020e-01
6.000000000000000000e+00	8.978590559515112091e+00	1.064733810298822969e-01
6.240000000000000213e+00	8.976934774678255735e+00	1.119036609849096003e-01
6.480000000000000426e+00	8.975310511349093190e+00	1.173411701480177871e-01
6.719999999999999751e+00	8.973727514847084308e+00	1.227862522344533719e-01
6.959999999999999964e+00	8.972178963451794331e+00	1.282412995121342825e-01
7.200000000000000178e+00	8.970646513208656359e+00	1.337087760346939991e-01
7.440000000000000391e+00	8.969134021287647585e+00	1.391905327379163726e-01
7.679999999999999716e+00	8.967655187387853388e+00	1.446889578027328316e-01
7.919999999999999929e+00	8.966211122270166811e+00	1.502066962167500908e-01
8.160000000000000142e+00	8.964802329778770229e+00	1.557469219410025363e-01
8.400000000000000355e+00	8.963460323227037563e+00	1.613114285829949923e-01
8.640000000000000568e+00	8.962210040486580098e+00	1.669023827623506706e-01
8.880000000000000782e+00	8.961072340925417379e+00	1.725226237314230471e-01
9.119999999999999218e+00	8.960090277955504945e+00	1.781733413103354924e-01
9.359999999999999432e+00	8.959308169991613724e+00	1.838558390234375506e-01
9.599999999999999645e+00	8.958752495947269523e+00	1.895724495639424800e-01
9.839999999999999858e+00	8.958459369911309977e+00	1.953238050467660802e-01
1.008000000000000007e+01	8.958454349407627859e+00	2.011105966335760831e-01
1.032000000000000028e+01	8.958726472183336398e+00	2.069351114800612457e-01
1.056000000000000050e+01	8.959267549426169097e+00	2.127977371256187522e-01
1.080000000000000071e+01	8.960046978865175760e+00	2.186990694662330204e-01
1.103999999999999915e+01	8.960993514570480656e+00	2.246414153053984120e-01
1.127999999999999936e+01	8.962053921349486529e+00	2.306243461056825261e-01
1.151999999999999957e+01	8.963150179399340445e+00	2.366484333378182092e-01
1.175999999999999979e+01	8.964185644126054342e+00	2.427148444591660514e-01
1.200000000000000000e+01	8.965104670043267276e+00	2.488212191031748122e-01
1.224000000000000021e+01	8.965819245209564414e+00	2.549685261111468981e-01
1.248000000000000043e+01	8.966286346693827625e+00	2.611538741963582710e-01
1.272000000000000064e+01	8.966461048549717816e+00	2.673759712999129179e-01
1.296000000000000085e+01	8.966317885915781716e+00	2.736322036564732274e-01
1.319999999999999929e+01	8.965857888304833878e+00	2.799200946038634674e-01
1.343999999999999950e+01	8.965085668614261039e+00	2.862366825270688531e-01
1.367999999999999972e+01	8.964017518501467663e+00	2.925800200381935001e-01
1.391999999999999993e+01	8.962689157892544500e+00	2.989459885691762575e-01
1.416000000000000014e+01	8.961120330682787127e+00	3.053337410855803125e-01
1.440000000000000036e+01	8.959357186355935809e+00	3.117394812230982470e-01
1.464000000000000057e+01	8.957425305431685914e+00	3.181616274962160151e-01
1.488000000000000078e+01	8.955352086170503156e+00	3.245986372593090974e-01
1.511999999999999922e+01	8.953173384975057658e+00	3.310475122726708741e-01
1.535999999999999943e+01	8.950907067572977382e+00	3.375071629359946423e-01
1.559999999999999964e+01	8.948570185791439258e+00	3.439765036201130055e-01
1.583999999999999986e+01	8.946184394149021557e+00	3.504539079485188280e-01
1.607999999999999829e+01	8.943761652917119775e+00	3.569382991184110177e-01
1.632000000000000028e+01	8.941307973049674729e+00	3.634293844819551089e-01
1.655999999999999872e+01	8.938830866207158721e+00	3.699268813998398686e-01
1.680000000000000071e+01	8.936339202112318247e+00	3.764304661437129496e-01
1.703999999999999915e+01	8.933838883343277359e+00	3.829404650692263545e-01
1.728000000000000114e+01	8.931332515127438754e+00	3.894573464459237244e-01
1.751999999999999957e+01	8.928823105996839260e+00	3.959821420520454605e-01
1.776000000000000156e+01	8.926316564160995171e+00	4.025156917975864501e-01
1.800000000000000000e+01	8.923819068909120134e+00	4.090591500960629179e-01
1.823999999999999844e+01	8.921335248928663475e+00	4.156136120798026856e-01
1.848000000000000043e+01	8.918869021462747071e+00	4.221802307973967494e-01
1.871999999999999886e+01	8.916424789565532194e+00	4.287604595828343190e-01
1.896000000000000085e+01	8.914006378650411122e+00	4.353555503062209175e-01
1.919999999999999929e+01	8.911615904753320550e+00	4.419665520717327989e-01
1.944000000000000128e+01	8.909254497193657585e+00	4.485943810460389369e-01
1.967999999999999972e+01	8.906922900023376499e+00	4.552397145180968052e-01
1.992000000000000171e+01	8.904619457574485253e+00	4.619032521998166496e-01
2.016000000000000014e+01	8.902340785164428283e+00	4.685852597859898605e-01
2.039999999999999858e+01	8.900082689161632032e+00	4.752857155471837403e-01
2.064000000000000057e+01	8.897842768430539451e+00	4.820046072199195564e-01
2.087999999999999901e+01	8.895615930644282798e+00	4.887418824646734272e-01
2.112000000000000099e+01	8.893395048275563042e+00	4.954969754314277885e-01
2.135999999999999943e+01	8.891177373249025351e+00	5.022692598404837616e-01
2.160000000000000142e+01	8.888962558909422995e+00	5.090582530080917101e-01
2.183999999999999986e+01	8.886744780981606695e+00	5.158634804259866202e-01
2.207999999999999829e+01	8.884522352103431331e+00	5.226840657583785577e-01
2.232000000000000028e+01	8.882297869278437119e+00	5.295193741374406571e-01
2.255999999999999872e+01	8.880067306709333863e+00	5.363690880196899657e-01
2.280000000000000071e+01	8.877832451940705027e+00	5.432325804425426341e-01
2.303999999999999915e+01	8.875592599153367956e+00	5.501092834748960714e-01
2.328000000000000114e+01	8.873345009691851359e+00	5.569991089652411853e-01
2.351999999999999957e+01	8.871093180691570268e+00	5.639014159467358178e-01
2.376000000000000156e+01	8.868825800545007354e+00	5.708160659518024538e-01
2.400000000000000000e+01	8.866547419761344528e+00	5.777427862585230445e-01
2.423999999999999844e+01	8.864244971543282503e+00	5.846818809352851698e-01
2.448000000000000043e+01	8.861919446484149532e+00	5.916327304165991396e-01
2.471999999999999886e+01	8.859561825024380610e+00	5.985953871067090093e-01
2.496000000000000085e+01	8.857177039088426795e+00	6.055692501454481569e-01
2.519999999999999929e+01	8.854757406235728823e+00	6.125541451881412192e-01
2.544000000000000128e+01	8.852305794227261160e+00	6.195501162528327388e-01
2.567999999999999972e+01	8.849830933559726276e+00	6.265564489211931098e-01
2.592000000000000171e+01	8.847330483483482055e+00	6.335726205444016657e-01
2.616000000000000014e+01	8.844817017905151957e+00	6.405985884138867270e-01
2.639999999999999858e+01	8.842297330194243798e+00	6.476339121884620020e-01
2.664000000000000057e+01	8.839775229165185877e+00	6.546781108069972266e-01
2.687999999999999901e+01	8.837260254224929668e+00	6.617311629747135715e-01
2.712000000000000099e+01	8.834759347883581526e+00	6.687927177375596610e-01
2.735999999999999943e+01	8.832279980519512463e+00	6.758625872823988967e-01
2.760000000000000142e+01	8.829819515023665133e+00	6.829408416956760375e-01
2.783999999999999986e+01	8.827382083776170063e+00	6.900276991548056627e-01
2.807999999999999829e+01	8.824971370866776965e+00	6.971226080620647192e-01
2.832000000000000028e+01	8.822586527967512637e+00	7.042260129369003474e-01
2.855999999999999872e+01	8.820230111569712150e+00	7.113377498642209362e-01
2.880000000000000071e+01	8.817895425158516431e+00	7.184579097778954759e-01
2.903999999999999915e+01	8.815582700848691999e+00	7.255869871948591454e-01
2.928000000000000114e+01	8.813287415100882427e+00	7.327244145083663396e-01
2.951999999999999957e+01	8.811010198638276947e+00	7.398710248367674769e-01
2.976000000000000156e+01	8.808746870696177567e+00	7.470260201335793271e-01
3.000000000000000000e+01	8.806498479121772860e+00	7.541903452464734370e-01
3.023999999999999844e+01	8.804261244249349971e+00	7.613631418904633907e-01
3.048000000000000043e+01	8.802036772488131433e+00	7.685453504141011027e-01
3.071999999999999886e+01	8.799822371654494546e+00	7.757361282560307769e-01
3.096000000000000085e+01	8.797619428541194608e+00	7.829363238061434194e-01
3.119999999999999929e+01	8.795426868604682369e+00	7.901452448191925715e-01
3.144000000000000128e+01	8.793243769863581250e+00	7.973634506886616569e-01
3.167999999999999972e+01	8.791071612605307450e+00	8.045906167350362903e-01
3.192000000000000171e+01	8.788910279020104355e+00	8.118264223763909104e-01
3.215999999999999659e+01	8.786765624473993341e+00	8.190711758900515171e-01
3.239999999999999858e+01	8.784634782662818608e+00	8.263240833180016676e-01
3.264000000000000057e+01	8.782518235590359268e+00	8.335857914294211302e-01
3.288000000000000256e+01	8.780413027850165975e+00	8.408558970695551027e-01
3.311999999999999744e+01	8.778320362408813082e+00	8.481337280782453858e-01
3.335999999999999943e+01	8.776244353159819767e+00	8.554195268006252739e-01
3.360000000000000142e+01	8.774178965650767381e+00	8.627128341131059530e-01
3.384000000000000341e+01	8.772123134410351852e+00	8.700136950193906316e-01
3.407999999999999829e+01	8.770085781218691423e+00	8.773219825024823892e-01
3.432000000000000028e+01	8.768059929327309376e+00	8.846374279137666496e-01
3.456000000000000227e+01	8.766046066853400376e+00	8.919597128678090625e-01
3.479999999999999716e+01	8.764048591476301553e+00	8.992888767424821461e-01
3.503999999999999915e+01	8.762061932639374717e+00	9.066248435103702041e-01
3.528000000000000114e+01	8.760090398036455284e+00	9.139668165808936262e-01
3.552000000000000313e+01	8.758129637385399846e+00	9.213154787790629463e-01
3.575999999999999801e+01	8.756188409893599811e+00	9.286703642217852828e-01
3.600000000000000000e+01	8.754260324676808480e+00	9.360316405046869015e-01
3.624000000000000199e+01	8.752349835405578204e+00	9.433986866444643571e-01
3.647999999999999687e+01	8.750452837493963187e+00	9.507719978086254242e-01
3.671999999999999886e+01	8.748574720438227814e+00	9.581513174473962335e-01
3.696000000000000085e+01	8.746714683896316345e+00	9.655366414932514685e-01
3.720000000000000284e+01	8.744871051069463164e+00	9.729279046167353950e-01
3.743999999999999773e+01	8.743046418126073860e+00	9.803248087637033148e-01
3.767999999999999972e+01	8.741238289154228625e+00	9.877276270916245382e-01
3.792000000000000171e+01	8.739447538517252312e+00	9.951363401864592451e-01
3.815999999999999659e+01	8.737676447810553526e+00	1.002550715026765626e+00
3.839999999999999858e+01	8.735925036780065156e+00	1.009970722875070948e+00
3.864000000000000057e+01	8.734191968712874399e+00	1.017396435913296759e+00
3.888000000000000256e+01	8.732478959738056545e+00	1.024827676176761182e+00
3.911999999999999744e+01	8.730786864647290813e+00	1.032264354190133071e+00
3.935999999999999943e+01	8.729116747587235992e+00	1.039706393047844069e+00
3.960000000000000142e+01	8.727468658203198615e+00	1.047153778253269163e+00
3.984000000000000341e+01	8.725842429369192743e+00	1.054606510577169143e+00
4.007999999999999829e+01	8.724238603466163866e+00	1.062064508910560034e+00
4.032000000000000028e+01	8.722657535713867816e+00	1.069527726130157896e+00
4.056000000000000227e+01	8.721099539620041696e+00	1.076996132889175728e+00
4.079999999999999716e+01	8.719564760778991896e+00	1.084469697830468649e+00
4.103999999999999915e+01	8.718053023037514393e+00	1.091948390267240221e+00
4.128000000000000114e+01	8.716563847741813476e+00	1.099432150974066991e+00
4.152000000000000313e+01	8.715096276980608181e+00	1.106920883583986548e+00
4.175999999999999801e+01	8.713649138999560506e+00	1.114414522869391133e+00
4.200000000000000000e+01	8.712221765715703725e+00	1.121912969536204896e+00
4.224000000000000199e+01	8.710814099307558678e+00	1.129416173653625455e+00
4.247999999999999687e+01	8.709426410348314107e+00	1.136924120476745959e+00
4.271999999999999886e+01	8.708058924187310978e+00	1.144436729728371072e+00
4.296000000000000085e+01	8.706711488739873772e+00	1.151953947205744733e+00
4.320000000000000284e+01	8.705382723428883196e+00	1.159475766459972634e+00
4.343999999999999773e+01	8.704071885863294611e+00	1.167002089582780400e+00
4.367999999999999972e+01	8.702780020292061991e+00	1.174532888702515043e+00
4.392000000000000171e+01	8.701509612453483200e+00	1.182068130270484740e+00
4.415999999999999659e+01	8.700262096796331335e+00	1.189607623060340735e+00
4.439999999999999858e+01	8.699035274957628516e+00	1.197151051742444627e+00
4.464000000000000057e+01	8.697827852807865412e+00	1.204698290714922404e+00
4.488000000000000256e+01	8.696642015282222360e+00	1.212249422975323565e+00
4.511999999999999744e+01	8.695482091147342274e+00	1.219804338017139278e+00
4.535999999999999943e+01	8.694342218233837016e+00	1.227362887548028914e+00
4.560000000000000142e+01	8.693220388859836945e+00	1.234925212139872608e+00
4.584000000000000341e+01	8.692125521815835754e+00	1.242491083655108630e+00
4.607999999999999829e+01	8.691052189941231632e+00	1.250060431968742503e+00
4.632000000000000028e+01	8.689995242790180541e+00	1.257633282857206325e+00
4.656000000000000227e+01	8.688965963591407160e+00	1.265209501494971134e+00
4.679999999999999716e+01	8.687954921263585817e+00	1.272789164054297650e+00
4.703999999999999915e+01	8.686962421142904844e+00	1.280372068388067497e+00
4.728000000000000114e+01	8.685998055328200351e+00	1.287958394036604393e+00
4.752000000000000313e+01	8.685046513554986802e+00	1.295547833025729290e+00
4.775999999999999801e+01	8.684122976050955955e+00	1.303140485450194008e+00
4.800000000000000000e+01	8.683215362406166093e+00	1.310736312480639043e+00
4.824000000000000199e+01	8.682332089598595815e+00	1.318335192738128825e+00
4.847999999999999687e+01	8.681467945252823171e+00	1.325937190157943091e+00
4.871999999999999886e+01	8.680627000737228371e+00	1.333542137594817323e+00
4.896000000000000085e+01	8.679806859968037358e+00	1.341149951938747531e+00
4.920000000000000284e+01	8.679009811603354052e+00	1.348760754328857114e+00
4.943999999999999773e+01	8.678230632439738912e+00	1.356374352000393246e+00
4.967999999999999972e+01	8.677479779860794551e+00	1.363990724968922263e+00
4.992000000000000171e+01	8.676739507149799024e+00	1.371610076920282806e+00
5.015999999999999659e+01	8.676033580226766517e+00	1.379232035926440725e+00
5.039999999999999858e+01	8.675338155619220615e+00	1.386856786246843498e+00
5.064000000000000057e+01	8.674667703599061142e+00	1.394483978987970829e+00
5.088000000000000256e+01	8.674023390385167787e+00	1.402113795629164050e+00
5.111999999999999744e+01	8.673388097229773663e+00	1.409746396572009619e+00
5.135999999999999943e+01	8.672781638431976248e+00	1.417381244825519637e+00
5.160000000000000142e+01	8.672199674538719094e+00	1.425018584270842714e+00
5.184000000000000341e+01	8.671625693364639176e+00	1.432658425348290354e+00
5.207999999999999829e+01	8.671076562911077090e+00	1.440300349696230109e+00
5.232000000000000028e+01	8.670558548515858277e+00	1.447944443285303029e+00
5.256000000000000227e+01	8.670053814577423523e+00	1.455591054017205233e+00
5.279999999999999716e+01	8.669561402693036101e+00	1.463239866690595026e+00
5.303999999999999915e+01	8.669093544433071230e+00	1.470890412935331515e+00
5.328000000000000114e+01	8.668658445365897691e+00	1.478542911338076582e+00
5.352000000000000313e+01	8.668240966661999281e+00	1.486197528584312755e+00
5.375999999999999801e+01	8.667835943642552721e+00	1.493854439178307514e+00
5.400000000000000000e+01	8.667444704427328617e+00	1.501513296941715980e+00
5.424000000000000199e+01	8.667072164137726631e+00	1.509173756692572699e+00
5.447999999999999687e+01	8.666723408698501885e+00	1.516835761277455008e+00
5.471999999999999886e+01	8.666402467379022312e+00	1.524499521756448983e+00
5.496000000000000085e+01	8.666103706599278311e+00	1.532165049583805505e+00
5.520000000000000284e+01	8.665823524866977934e+00	1.539832349117234545e+00
5.543999999999999773e+01	8.665559555227572375e+00	1.547501355694404612e+00
5.567999999999999972e+01	8.665311405560773395e+00	1.555172037277614772e+00
5.592000000000000171e+01	8.665079896945874438e+00	1.562844395857323265e+00
5.615999999999999659e+01	8.664866236868308036e+00	1.570518309961724590e+00
5.639999999999999858e+01	8.664670436212936977e+00	1.578193622207063607e+00
5.664000000000000057e+01	8.664492531538327214e+00	1.585870292020159278e+00
5.688000000000000256e+01	8.664332630082231645e+00	1.593548426974337406e+00
5.711999999999999744e+01	8.664190364907579323e+00	1.601228017572239093e+00
5.735999999999999943e+01	8.664064821078156342e+00	1.608908978945549739e+00
5.760000000000000142e+01	8.663953711068682395e+00	1.616591323505462086e+00
5.784000000000000341e+01	8.663850638707820906e+00	1.624274916307606675e+00
5.807999999999999829e+01	8.663764634376812879e+00	1.631959618709363458e+00
5.832000000000000028e+01	8.663699530594552556e+00	1.639645279900354247e+00
5.856000000000000227e+01	8.663658739925486074e+00	1.647331729565056024e+00
5.879999999999999716e+01	8.663641164117965587e+00	1.655019020922899875e+00
5.903999999999999915e+01	8.663640072247305923e+00	1.662707787791173564e+00
5.928000000000000114e+01	8.663644425434174678e+00	1.670398149988019609e+00
5.952000000000000313e+01	8.663659735665682149e+00	1.678089601833272049e+00
5.975999999999999801e+01	8.663698921554892962e+00	1.685781470189444242e+00
6.000000000000000000e+01	8.663760352455494029e+00	1.693474021162290732e+00
6.024000000000000199e+01	8.663828057391743442e+00	1.701168249925402831e+00
6.047999999999999687e+01	8.663905630181286455e+00	1.708863440713253912e+00
6.071999999999999886e+01	8.664009244833069445e+00	1.716558800418535480e+00
6.096000000000000085e+01	8.664127311815454036e+00	1.724255146324502386e+00
6.120000000000000284e+01	8.664250234262246053e+00	1.731952690334414235e+00
6.143999999999999773e+01	8.664398596217065318e+00	1.739650057795838478e+00
6.167999999999999972e+01	8.664559270999506069e+00	1.747348524021014926e+00
6.192000000000000171e+01	8.664727793993462157e+00	1.755047798359917532e+00
6.215999999999999659e+01	8.664920020548704471e+00	1.762746892641010810e+00
6.239999999999999858e+01	8.665114389570613085e+00	1.770447501398224155e+00
6.264000000000000057e+01	8.665329258186485362e+00	1.778147942177127350e+00
6.288000000000000256e+01	8.665550972935829321e+00	1.785849796448362836e+00
6.311999999999999744e+01	8.665786291954020726e+00	1.793552156596910807e+00
6.335999999999999943e+01	8.666033700023206165e+00	1.801255618039992568e+00
6.360000000000000142e+01	8.666291746447951638e+00	1.808959748175102300e+00
6.384000000000000341e+01	8.666560848023733499e+00	1.816664899765873420e+00
